time/s	Ewe/V	I/mA
0.00E+00	3.04E+00	-2.29E-01
1.92E+01	2.02E+00	-2.31E-01
1.92E+01	2.02E+00	-2.31E-01
1.29E+03	3.10E+00	0.00E+00
1.29E+03	3.10E+00	0.00E+00
1.29E+03	3.10E+00	0.00E+00
1.30E+03	2.56E+00	-2.31E-01
1.31E+03	2.29E+00	-2.31E-01
1.32E+03	2.12E+00	-2.31E-01
1.33E+03	2.02E+00	-2.31E-01
1.34E+03	1.93E+00	-2.31E-01
1.35E+03	1.89E+00	-2.31E-01
1.36E+03	1.87E+00	-2.31E-01
1.37E+03	1.82E+00	-2.31E-01
1.38E+03	1.80E+00	-2.31E-01
1.39E+03	1.76E+00	-2.31E-01
1.40E+03	1.74E+00	-2.31E-01
1.41E+03	1.71E+00	-2.31E-01
1.42E+03	1.67E+00	-2.31E-01
1.43E+03	1.66E+00	-2.31E-01
1.44E+03	1.65E+00	-2.31E-01
1.45E+03	1.62E+00	-2.31E-01
1.46E+03	1.62E+00	-2.31E-01
1.47E+03	1.62E+00	-2.31E-01
1.48E+03	1.62E+00	-2.31E-01
1.49E+03	1.58E+00	-2.31E-01
1.50E+03	1.57E+00	-2.31E-01
1.51E+03	1.55E+00	-2.31E-01
1.52E+03	1.54E+00	-2.31E-01
1.53E+03	1.55E+00	-2.31E-01
1.54E+03	1.54E+00	-2.31E-01
1.55E+03	1.52E+00	-2.31E-01
1.56E+03	1.52E+00	-2.31E-01
1.57E+03	1.51E+00	-2.31E-01
1.58E+03	1.50E+00	-2.31E-01
1.59E+03	1.49E+00	-2.31E-01
1.60E+03	1.49E+00	-2.31E-01
1.61E+03	1.49E+00	-2.31E-01
1.62E+03	1.49E+00	-2.31E-01
1.63E+03	1.47E+00	-2.31E-01
1.64E+03	1.47E+00	-2.31E-01
1.65E+03	1.48E+00	-2.31E-01
1.66E+03	1.46E+00	-2.31E-01
1.67E+03	1.46E+00	-2.31E-01
1.68E+03	1.45E+00	-2.31E-01
1.69E+03	1.44E+00	-2.31E-01
1.70E+03	1.45E+00	-2.31E-01
1.71E+03	1.46E+00	-2.31E-01
1.72E+03	1.44E+00	-2.31E-01
1.73E+03	1.43E+00	-2.31E-01
1.74E+03	1.44E+00	-2.31E-01
1.75E+03	1.43E+00	-2.31E-01
1.76E+03	1.42E+00	-2.31E-01
1.77E+03	1.42E+00	-2.31E-01
1.78E+03	1.42E+00	-2.31E-01
1.79E+03	1.41E+00	-2.31E-01
1.80E+03	1.39E+00	-2.31E-01
1.81E+03	1.40E+00	-2.31E-01
1.82E+03	1.39E+00	-2.31E-01
1.83E+03	1.40E+00	-2.31E-01
1.84E+03	1.39E+00	-2.31E-01
1.85E+03	1.39E+00	-2.31E-01
1.86E+03	1.39E+00	-2.31E-01
1.87E+03	1.38E+00	-2.31E-01
1.88E+03	1.38E+00	-2.31E-01
1.89E+03	1.38E+00	-2.31E-01
1.90E+03	1.38E+00	-2.31E-01
1.91E+03	1.37E+00	-2.31E-01
1.92E+03	1.37E+00	-2.31E-01
1.93E+03	1.36E+00	-2.31E-01
1.94E+03	1.36E+00	-2.31E-01
1.95E+03	1.35E+00	-2.31E-01
1.96E+03	1.36E+00	-2.31E-01
1.97E+03	1.34E+00	-2.31E-01
1.98E+03	1.34E+00	-2.31E-01
1.99E+03	1.34E+00	-2.31E-01
2.00E+03	1.34E+00	-2.31E-01
2.01E+03	1.36E+00	-2.31E-01
2.02E+03	1.35E+00	-2.31E-01
2.03E+03	1.35E+00	-2.31E-01
2.04E+03	1.34E+00	-2.31E-01
2.05E+03	1.35E+00	-2.31E-01
2.06E+03	1.34E+00	-2.31E-01
2.07E+03	1.33E+00	-2.31E-01
2.08E+03	1.33E+00	-2.31E-01
2.09E+03	1.33E+00	-2.31E-01
2.10E+03	1.32E+00	-2.31E-01
2.11E+03	1.32E+00	-2.31E-01
2.12E+03	1.32E+00	-2.31E-01
2.13E+03	1.32E+00	-2.31E-01
2.14E+03	1.32E+00	-2.31E-01
2.15E+03	1.32E+00	-2.31E-01
2.16E+03	1.33E+00	-2.31E-01
2.17E+03	1.33E+00	-2.31E-01
2.18E+03	1.32E+00	-2.31E-01
2.19E+03	1.32E+00	-2.31E-01
2.20E+03	1.33E+00	-2.31E-01
2.21E+03	1.32E+00	-2.31E-01
2.22E+03	1.31E+00	-2.31E-01
2.23E+03	1.31E+00	-2.31E-01
2.24E+03	1.30E+00	-2.31E-01
2.25E+03	1.31E+00	-2.31E-01
2.26E+03	1.31E+00	-2.31E-01
2.27E+03	1.31E+00	-2.31E-01
2.28E+03	1.30E+00	-2.31E-01
2.29E+03	1.30E+00	-2.31E-01
2.30E+03	1.29E+00	-2.31E-01
2.31E+03	1.29E+00	-2.31E-01
2.32E+03	1.28E+00	-2.31E-01
2.33E+03	1.27E+00	-2.31E-01
2.34E+03	1.28E+00	-2.31E-01
2.35E+03	1.29E+00	-2.31E-01
2.36E+03	1.30E+00	-2.31E-01
2.37E+03	1.28E+00	-2.31E-01
2.38E+03	1.28E+00	-2.31E-01
2.39E+03	1.28E+00	-2.31E-01
2.40E+03	1.27E+00	-2.31E-01
2.41E+03	1.27E+00	-2.31E-01
2.42E+03	1.28E+00	-2.31E-01
2.43E+03	1.26E+00	-2.31E-01
2.44E+03	1.27E+00	-2.31E-01
2.45E+03	1.28E+00	-2.31E-01
2.46E+03	1.28E+00	-2.31E-01
2.47E+03	1.28E+00	-2.31E-01
2.48E+03	1.28E+00	-2.31E-01
2.49E+03	1.27E+00	-2.31E-01
2.50E+03	1.27E+00	-2.31E-01
2.51E+03	1.26E+00	-2.31E-01
2.52E+03	1.27E+00	-2.31E-01
2.53E+03	1.24E+00	-2.31E-01
2.54E+03	1.24E+00	-2.31E-01
2.55E+03	1.24E+00	-2.31E-01
2.56E+03	1.27E+00	-2.31E-01
2.57E+03	1.29E+00	-2.31E-01
2.58E+03	1.29E+00	-2.31E-01
2.59E+03	1.27E+00	-2.31E-01
2.60E+03	1.30E+00	-2.31E-01
2.61E+03	1.26E+00	-2.31E-01
2.62E+03	1.31E+00	-2.31E-01
2.63E+03	1.30E+00	-2.31E-01
2.64E+03	1.32E+00	-2.31E-01
2.65E+03	1.34E+00	-2.31E-01
2.66E+03	1.31E+00	-2.31E-01
2.67E+03	1.34E+00	-2.31E-01
2.68E+03	1.34E+00	-2.31E-01
2.69E+03	1.33E+00	-2.31E-01
2.70E+03	1.33E+00	-2.31E-01
2.71E+03	1.32E+00	-2.31E-01
2.72E+03	1.31E+00	-2.31E-01
2.73E+03	1.31E+00	-2.31E-01
2.74E+03	1.32E+00	-2.31E-01
2.75E+03	1.28E+00	-2.31E-01
2.76E+03	1.30E+00	-2.31E-01
2.77E+03	1.29E+00	-2.31E-01
2.78E+03	1.29E+00	-2.31E-01
2.79E+03	1.32E+00	-2.31E-01
2.80E+03	1.32E+00	-2.31E-01
2.81E+03	1.31E+00	-2.31E-01
2.82E+03	1.31E+00	-2.31E-01
2.83E+03	1.31E+00	-2.31E-01
2.84E+03	1.31E+00	-2.31E-01
2.85E+03	1.29E+00	-2.31E-01
2.86E+03	1.29E+00	-2.31E-01
2.87E+03	1.29E+00	-2.31E-01
2.88E+03	1.29E+00	-2.31E-01
2.89E+03	1.29E+00	-2.31E-01
2.90E+03	1.29E+00	-2.31E-01
2.91E+03	1.29E+00	-2.31E-01
2.92E+03	1.26E+00	-2.31E-01
2.93E+03	1.25E+00	-2.31E-01
2.94E+03	1.16E+00	-2.31E-01
2.95E+03	5.57E-01	-2.31E-01
2.95E+03	4.99E-01	-2.31E-01
2.95E+03	5.00E-01	-2.31E-01
2.95E+03	4.99E-01	-2.30E-01
2.96E+03	4.99E-01	-1.85E-01
2.96E+03	5.00E-01	-1.85E-01
3.03E+03	1.85E+00	0.00E+00
3.03E+03	1.85E+00	0.00E+00
3.03E+03	1.85E+00	0.00E+00
3.04E+03	5.00E-01	-3.20E-01
3.04E+03	5.00E-01	-2.77E-01
3.04E+03	4.99E-01	-2.77E-01
3.05E+03	1.28E+00	0.00E+00