time/s	Ewe/V	I/mA
0.00E+00	1.69E+00	-2.29E-01
7.92E+00	1.64E+00	-2.31E-01
7.92E+00	1.64E+00	-2.31E-01
1.89E+02	2.14E+00	0.00E+00
1.89E+02	2.13E+00	0.00E+00
1.89E+02	1.68E+00	0.00E+00
2.09E+02	1.63E+00	-2.31E-01
2.29E+02	1.63E+00	-2.31E-01
2.49E+02	1.47E+00	-2.31E-01
2.69E+02	1.63E+00	-2.31E-01
2.89E+02	1.63E+00	-2.31E-01
3.09E+02	1.63E+00	-2.31E-01
3.29E+02	1.62E+00	-2.31E-01
3.49E+02	1.62E+00	-2.31E-01
3.69E+02	1.60E+00	-2.31E-01
3.89E+02	1.39E+00	-2.31E-01
4.09E+02	1.59E+00	-2.31E-01
4.29E+02	1.56E+00	-2.31E-01
4.49E+02	1.48E+00	-2.31E-01
4.69E+02	1.60E+00	-2.31E-01
4.89E+02	1.59E+00	-2.31E-01
5.09E+02	1.57E+00	-2.31E-01
5.29E+02	1.60E+00	-2.31E-01
5.49E+02	1.60E+00	-2.31E-01
5.69E+02	1.60E+00	-2.31E-01
5.89E+02	1.41E+00	-2.31E-01
6.09E+02	1.41E+00	-2.31E-01
6.29E+02	1.40E+00	-2.31E-01
6.49E+02	9.99E-01	-2.31E-01
6.69E+02	1.58E+00	-2.31E-01
6.89E+02	1.58E+00	-2.31E-01
7.09E+02	1.58E+00	-2.31E-01
7.29E+02	1.57E+00	-2.31E-01
7.49E+02	1.57E+00	-2.31E-01
7.69E+02	1.57E+00	-2.31E-01
7.89E+02	1.57E+00	-2.31E-01
8.09E+02	1.57E+00	-2.31E-01
8.29E+02	1.57E+00	-2.31E-01
8.49E+02	1.57E+00	-2.31E-01
8.69E+02	1.56E+00	-2.31E-01
8.89E+02	1.56E+00	-2.31E-01
9.09E+02	1.56E+00	-2.31E-01
9.29E+02	1.56E+00	-2.31E-01
9.49E+02	1.56E+00	-2.31E-01
9.69E+02	1.55E+00	-2.31E-01
9.89E+02	1.55E+00	-2.31E-01
1.01E+03	1.55E+00	-2.31E-01
1.03E+03	1.55E+00	-2.31E-01
1.05E+03	1.55E+00	-2.31E-01
1.07E+03	1.55E+00	-2.31E-01
1.09E+03	1.54E+00	-2.31E-01
1.11E+03	1.54E+00	-2.31E-01
1.13E+03	1.54E+00	-2.31E-01
1.15E+03	1.54E+00	-2.31E-01
1.17E+03	1.54E+00	-2.31E-01
1.19E+03	1.54E+00	-2.31E-01
1.21E+03	1.54E+00	-2.31E-01
1.23E+03	1.54E+00	-2.31E-01
1.25E+03	1.54E+00	-2.31E-01
1.27E+03	1.54E+00	-2.31E-01
1.29E+03	1.54E+00	-2.31E-01
1.31E+03	1.53E+00	-2.31E-01
1.33E+03	1.53E+00	-2.31E-01
1.35E+03	1.53E+00	-2.31E-01
1.37E+03	1.53E+00	-2.31E-01
1.39E+03	1.54E+00	-2.31E-01
1.41E+03	1.54E+00	-2.31E-01
1.43E+03	1.53E+00	-2.31E-01
1.45E+03	1.53E+00	-2.31E-01
1.47E+03	1.52E+00	-2.31E-01
1.49E+03	1.52E+00	-2.31E-01
1.51E+03	1.52E+00	-2.31E-01
1.53E+03	1.51E+00	-2.31E-01
1.55E+03	1.50E+00	-2.31E-01
1.57E+03	1.47E+00	-2.31E-01
1.59E+03	1.34E+00	-2.31E-01
1.61E+03	1.53E+00	-2.31E-01
1.63E+03	1.53E+00	-2.31E-01
1.65E+03	1.52E+00	-2.31E-01
1.67E+03	1.52E+00	-2.31E-01
1.69E+03	1.52E+00	-2.31E-01
1.71E+03	1.52E+00	-2.31E-01
1.73E+03	1.51E+00	-2.31E-01
1.75E+03	1.51E+00	-2.31E-01
1.77E+03	1.52E+00	-2.31E-01
1.79E+03	1.52E+00	-2.31E-01
1.81E+03	1.53E+00	-2.31E-01
1.83E+03	1.53E+00	-2.31E-01
1.85E+03	1.53E+00	-2.31E-01
1.87E+03	1.53E+00	-2.31E-01
1.89E+03	1.53E+00	-2.31E-01
1.91E+03	1.53E+00	-2.31E-01
1.93E+03	1.53E+00	-2.31E-01
1.95E+03	1.53E+00	-2.31E-01
1.97E+03	1.53E+00	-2.31E-01
1.99E+03	1.53E+00	-2.31E-01
2.01E+03	1.53E+00	-2.31E-01
2.03E+03	1.53E+00	-2.31E-01
2.05E+03	1.52E+00	-2.31E-01
2.07E+03	1.52E+00	-2.31E-01
2.09E+03	1.52E+00	-2.31E-01
2.11E+03	1.52E+00	-2.31E-01
2.13E+03	1.52E+00	-2.31E-01
2.15E+03	1.52E+00	-2.31E-01
2.17E+03	1.51E+00	-2.31E-01
2.19E+03	1.51E+00	-2.31E-01
2.21E+03	1.49E+00	-2.31E-01
2.23E+03	1.43E+00	-2.31E-01
2.25E+03	1.43E+00	-2.31E-01
2.27E+03	1.45E+00	-2.31E-01
2.29E+03	1.46E+00	-2.31E-01
2.31E+03	1.47E+00	-2.31E-01
2.33E+03	1.47E+00	-2.31E-01
2.35E+03	1.48E+00	-2.31E-01
2.37E+03	1.48E+00	-2.31E-01
2.39E+03	1.48E+00	-2.31E-01
2.41E+03	1.48E+00	-2.31E-01
2.43E+03	1.48E+00	-2.31E-01
2.45E+03	1.48E+00	-2.31E-01
2.47E+03	1.49E+00	-2.31E-01
2.49E+03	1.48E+00	-2.31E-01
2.51E+03	1.48E+00	-2.31E-01
2.53E+03	1.49E+00	-2.31E-01
2.55E+03	1.49E+00	-2.31E-01
2.57E+03	1.49E+00	-2.31E-01
2.59E+03	1.50E+00	-2.31E-01
2.61E+03	1.50E+00	-2.31E-01
2.63E+03	1.50E+00	-2.31E-01
2.65E+03	1.50E+00	-2.31E-01
2.67E+03	1.50E+00	-2.31E-01
2.69E+03	1.50E+00	-2.31E-01
2.71E+03	1.50E+00	-2.31E-01
2.73E+03	1.50E+00	-2.31E-01
2.75E+03	1.50E+00	-2.31E-01
2.77E+03	1.50E+00	-2.31E-01
2.79E+03	1.49E+00	-2.31E-01
2.81E+03	1.48E+00	-2.31E-01
2.83E+03	1.48E+00	-2.31E-01
2.85E+03	1.47E+00	-2.31E-01
2.87E+03	1.47E+00	-2.31E-01
2.89E+03	1.47E+00	-2.31E-01
2.91E+03	1.47E+00	-2.31E-01
2.93E+03	1.47E+00	-2.31E-01
2.95E+03	1.47E+00	-2.31E-01
2.97E+03	1.46E+00	-2.31E-01
2.99E+03	1.46E+00	-2.31E-01
3.01E+03	1.44E+00	-2.31E-01
3.03E+03	1.44E+00	-2.31E-01
3.05E+03	1.45E+00	-2.31E-01
3.07E+03	1.45E+00	-2.31E-01
3.09E+03	1.45E+00	-2.31E-01
3.11E+03	1.45E+00	-2.31E-01
3.13E+03	1.45E+00	-2.31E-01
3.15E+03	1.45E+00	-2.31E-01
3.17E+03	1.45E+00	-2.31E-01
3.19E+03	1.45E+00	-2.31E-01
3.21E+03	1.45E+00	-2.31E-01
3.23E+03	1.45E+00	-2.31E-01
3.25E+03	1.45E+00	-2.31E-01
3.27E+03	1.45E+00	-2.31E-01
3.29E+03	1.45E+00	-2.31E-01
3.31E+03	1.45E+00	-2.31E-01
3.33E+03	1.45E+00	-2.31E-01
3.35E+03	1.45E+00	-2.31E-01
3.37E+03	1.45E+00	-2.31E-01
3.39E+03	1.44E+00	-2.31E-01
3.41E+03	1.44E+00	-2.31E-01
3.43E+03	1.44E+00	-2.31E-01
3.45E+03	1.47E+00	-2.31E-01
3.47E+03	1.48E+00	-2.31E-01
3.49E+03	1.48E+00	-2.31E-01
3.51E+03	1.48E+00	-2.31E-01
3.53E+03	1.48E+00	-2.31E-01
3.55E+03	1.48E+00	-2.31E-01
3.57E+03	1.48E+00	-2.31E-01
3.59E+03	1.46E+00	-2.31E-01
3.61E+03	1.46E+00	-2.31E-01
3.63E+03	1.42E+00	-2.31E-01
3.65E+03	1.42E+00	-2.31E-01
3.67E+03	1.42E+00	-2.31E-01
3.69E+03	1.41E+00	-2.31E-01
3.71E+03	1.39E+00	-2.31E-01
3.73E+03	1.37E+00	-2.31E-01
3.75E+03	1.35E+00	-2.31E-01
3.77E+03	1.35E+00	-2.31E-01
3.79E+03	1.36E+00	-2.31E-01
3.81E+03	1.34E+00	-2.31E-01
3.83E+03	1.26E+00	-2.31E-01
3.85E+03	1.27E+00	-2.31E-01
3.87E+03	1.28E+00	-2.31E-01
3.89E+03	1.31E+00	-2.31E-01
3.91E+03	1.31E+00	-2.31E-01
3.93E+03	1.32E+00	-2.31E-01
3.95E+03	1.31E+00	-2.31E-01
3.97E+03	1.34E+00	-2.31E-01
3.99E+03	1.38E+00	-2.31E-01
4.01E+03	1.39E+00	-2.31E-01
4.03E+03	1.39E+00	-2.31E-01
4.05E+03	1.39E+00	-2.31E-01
4.07E+03	1.40E+00	-2.31E-01
4.09E+03	1.40E+00	-2.31E-01
4.11E+03	1.40E+00	-2.31E-01
4.13E+03	1.39E+00	-2.31E-01
4.15E+03	1.39E+00	-2.31E-01
4.17E+03	1.41E+00	-2.31E-01
4.19E+03	1.42E+00	-2.31E-01
4.21E+03	1.43E+00	-2.31E-01
4.23E+03	1.42E+00	-2.31E-01
4.25E+03	1.42E+00	-2.31E-01
4.27E+03	1.41E+00	-2.31E-01
4.29E+03	1.41E+00	-2.31E-01
4.31E+03	1.41E+00	-2.31E-01
4.33E+03	1.42E+00	-2.31E-01
4.35E+03	1.43E+00	-2.31E-01
4.37E+03	1.45E+00	-2.31E-01
4.39E+03	1.46E+00	-2.31E-01
4.41E+03	1.46E+00	-2.31E-01
4.43E+03	1.45E+00	-2.31E-01
4.45E+03	1.45E+00	-2.31E-01
4.47E+03	1.45E+00	-2.31E-01
4.49E+03	1.45E+00	-2.31E-01
4.51E+03	1.45E+00	-2.31E-01
4.53E+03	1.44E+00	-2.31E-01
4.55E+03	1.44E+00	-2.31E-01
4.57E+03	1.43E+00	-2.31E-01
4.59E+03	1.41E+00	-2.31E-01
4.61E+03	1.41E+00	-2.31E-01
4.63E+03	1.41E+00	-2.31E-01
4.65E+03	1.42E+00	-2.31E-01
4.67E+03	1.42E+00	-2.31E-01
4.69E+03	1.42E+00	-2.31E-01
4.71E+03	1.41E+00	-2.31E-01
4.73E+03	1.41E+00	-2.31E-01
4.75E+03	1.41E+00	-2.31E-01
4.77E+03	1.41E+00	-2.31E-01
4.79E+03	1.41E+00	-2.31E-01
4.81E+03	1.40E+00	-2.31E-01
4.83E+03	1.40E+00	-2.31E-01
4.85E+03	1.40E+00	-2.31E-01
4.87E+03	1.40E+00	-2.31E-01
4.89E+03	1.39E+00	-2.31E-01
4.91E+03	1.39E+00	-2.31E-01
4.93E+03	1.39E+00	-2.31E-01
4.95E+03	1.38E+00	-2.31E-01
4.97E+03	1.38E+00	-2.31E-01
4.99E+03	1.38E+00	-2.31E-01
5.01E+03	1.37E+00	-2.31E-01
5.03E+03	1.37E+00	-2.31E-01
5.05E+03	1.36E+00	-2.31E-01
5.07E+03	1.36E+00	-2.31E-01
5.09E+03	1.36E+00	-2.31E-01
5.11E+03	1.36E+00	-2.31E-01
5.13E+03	1.36E+00	-2.31E-01
5.15E+03	1.35E+00	-2.31E-01
5.17E+03	1.36E+00	-2.31E-01
5.19E+03	1.35E+00	-2.31E-01
5.21E+03	1.35E+00	-2.31E-01
5.23E+03	1.35E+00	-2.31E-01
5.25E+03	1.35E+00	-2.31E-01
5.27E+03	1.35E+00	-2.31E-01
5.29E+03	1.35E+00	-2.31E-01
5.31E+03	1.35E+00	-2.31E-01
5.33E+03	1.35E+00	-2.31E-01
5.35E+03	1.35E+00	-2.31E-01
5.37E+03	1.35E+00	-2.31E-01
5.39E+03	1.35E+00	-2.31E-01
5.41E+03	1.35E+00	-2.31E-01
5.43E+03	1.34E+00	-2.31E-01
5.45E+03	1.34E+00	-2.31E-01
5.47E+03	1.34E+00	-2.31E-01
5.49E+03	1.34E+00	-2.31E-01
5.51E+03	1.33E+00	-2.31E-01
5.53E+03	1.31E+00	-2.31E-01
5.55E+03	1.29E+00	-2.31E-01
5.57E+03	1.24E+00	-2.31E-01
5.59E+03	1.26E+00	-2.31E-01
5.61E+03	1.24E+00	-2.31E-01
5.63E+03	1.19E+00	-2.31E-01
5.65E+03	1.21E+00	-2.31E-01
5.67E+03	8.63E-01	-2.31E-01
5.69E+03	1.10E+00	-2.31E-01
5.71E+03	1.12E+00	-2.31E-01
5.73E+03	1.13E+00	-2.31E-01
5.75E+03	1.12E+00	-2.31E-01
5.77E+03	1.08E+00	-2.31E-01
5.79E+03	1.10E+00	-2.31E-01
5.81E+03	1.43E+00	-2.31E-01
5.83E+03	1.43E+00	-2.31E-01
5.85E+03	1.43E+00	-2.31E-01
5.87E+03	1.42E+00	-2.31E-01
5.89E+03	1.42E+00	-2.31E-01
5.91E+03	1.42E+00	-2.31E-01
5.93E+03	1.42E+00	-2.31E-01
5.95E+03	1.42E+00	-2.31E-01
5.97E+03	1.41E+00	-2.31E-01
5.99E+03	1.41E+00	-2.31E-01
6.01E+03	1.41E+00	-2.31E-01
6.03E+03	1.41E+00	-2.31E-01
6.05E+03	1.41E+00	-2.31E-01
6.07E+03	1.41E+00	-2.31E-01
6.09E+03	1.40E+00	-2.31E-01
6.11E+03	1.40E+00	-2.31E-01
6.13E+03	1.35E+00	-2.31E-01
6.15E+03	1.34E+00	-2.31E-01
6.17E+03	1.34E+00	-2.31E-01
6.19E+03	1.34E+00	-2.31E-01
6.21E+03	1.34E+00	-2.31E-01
6.23E+03	1.34E+00	-2.31E-01
6.25E+03	1.34E+00	-2.31E-01
6.27E+03	1.34E+00	-2.31E-01
6.29E+03	1.34E+00	-2.31E-01
6.31E+03	1.37E+00	-2.31E-01
6.33E+03	1.38E+00	-2.31E-01
6.35E+03	1.38E+00	-2.31E-01
6.37E+03	1.37E+00	-2.31E-01
6.39E+03	1.37E+00	-2.31E-01
6.41E+03	1.35E+00	-2.31E-01
6.43E+03	1.32E+00	-2.31E-01
6.45E+03	1.30E+00	-2.31E-01
6.47E+03	1.28E+00	-2.31E-01
6.49E+03	1.28E+00	-2.31E-01
6.51E+03	1.26E+00	-2.31E-01
6.53E+03	1.24E+00	-2.31E-01
6.55E+03	1.21E+00	-2.31E-01
6.57E+03	1.20E+00	-2.31E-01
6.59E+03	1.20E+00	-2.31E-01
6.61E+03	1.18E+00	-2.31E-01
6.63E+03	1.17E+00	-2.31E-01
6.65E+03	1.19E+00	-2.31E-01
6.67E+03	1.17E+00	-2.31E-01
6.69E+03	1.21E+00	-2.31E-01
6.71E+03	1.17E+00	-2.31E-01
6.73E+03	1.20E+00	-2.31E-01
6.75E+03	1.20E+00	-2.31E-01
6.77E+03	1.17E+00	-2.31E-01
6.79E+03	1.17E+00	-2.31E-01
6.81E+03	1.17E+00	-2.31E-01
6.83E+03	1.16E+00	-2.31E-01
6.85E+03	1.16E+00	-2.31E-01
6.87E+03	1.16E+00	-2.31E-01
6.89E+03	1.18E+00	-2.31E-01
6.91E+03	1.16E+00	-2.31E-01
6.93E+03	1.22E+00	-2.31E-01
6.95E+03	1.01E+00	-2.31E-01
6.97E+03	1.14E+00	-2.31E-01
6.99E+03	1.20E+00	-2.31E-01
7.01E+03	1.21E+00	-2.31E-01
7.03E+03	1.20E+00	-2.31E-01
7.05E+03	1.21E+00	-2.31E-01
7.07E+03	1.30E+00	-2.31E-01
7.09E+03	1.33E+00	-2.31E-01
7.11E+03	1.35E+00	-2.31E-01
7.13E+03	1.36E+00	-2.31E-01
7.15E+03	1.37E+00	-2.31E-01
7.17E+03	1.38E+00	-2.31E-01
7.19E+03	1.38E+00	-2.31E-01
7.21E+03	1.39E+00	-2.31E-01
7.23E+03	1.39E+00	-2.31E-01
7.25E+03	1.39E+00	-2.31E-01
7.27E+03	1.39E+00	-2.31E-01
7.29E+03	1.39E+00	-2.31E-01
7.31E+03	1.39E+00	-2.31E-01
7.33E+03	1.39E+00	-2.31E-01
7.35E+03	1.39E+00	-2.31E-01
7.37E+03	1.39E+00	-2.31E-01
7.39E+03	1.39E+00	-2.31E-01
7.41E+03	1.39E+00	-2.31E-01
7.43E+03	1.39E+00	-2.31E-01
7.45E+03	1.39E+00	-2.31E-01
7.47E+03	1.39E+00	-2.31E-01
7.49E+03	1.39E+00	-2.31E-01
7.51E+03	1.39E+00	-2.31E-01
7.53E+03	1.39E+00	-2.31E-01
7.55E+03	1.39E+00	-2.31E-01
7.57E+03	1.39E+00	-2.31E-01
7.59E+03	1.39E+00	-2.31E-01
7.61E+03	1.39E+00	-2.31E-01
7.63E+03	1.39E+00	-2.31E-01
7.65E+03	1.39E+00	-2.31E-01
7.67E+03	1.39E+00	-2.31E-01
7.69E+03	1.39E+00	-2.31E-01
7.71E+03	1.39E+00	-2.31E-01
7.73E+03	1.39E+00	-2.31E-01
7.75E+03	1.39E+00	-2.31E-01
7.77E+03	1.39E+00	-2.31E-01
7.79E+03	1.39E+00	-2.31E-01
7.81E+03	1.39E+00	-2.31E-01
7.83E+03	1.39E+00	-2.31E-01
7.85E+03	1.39E+00	-2.31E-01
7.87E+03	1.38E+00	-2.31E-01
7.89E+03	1.38E+00	-2.31E-01
7.91E+03	1.38E+00	-2.31E-01
7.93E+03	1.37E+00	-2.31E-01
7.95E+03	1.36E+00	-2.31E-01
7.97E+03	1.36E+00	-2.31E-01
7.99E+03	1.36E+00	-2.31E-01
8.01E+03	1.37E+00	-2.31E-01
8.03E+03	1.36E+00	-2.31E-01
8.05E+03	1.32E+00	-2.31E-01
8.07E+03	1.22E+00	-2.31E-01
8.09E+03	1.25E+00	-2.31E-01
8.11E+03	1.33E+00	-2.31E-01
8.13E+03	1.33E+00	-2.31E-01
8.15E+03	1.33E+00	-2.31E-01
8.17E+03	1.33E+00	-2.31E-01
8.19E+03	1.33E+00	-2.31E-01
8.21E+03	1.33E+00	-2.31E-01
8.23E+03	1.33E+00	-2.31E-01
8.25E+03	1.33E+00	-2.31E-01
8.27E+03	1.33E+00	-2.31E-01
8.29E+03	1.33E+00	-2.31E-01
8.31E+03	1.33E+00	-2.31E-01
8.33E+03	1.33E+00	-2.31E-01
8.35E+03	1.33E+00	-2.31E-01
8.37E+03	1.33E+00	-2.31E-01
8.39E+03	1.33E+00	-2.31E-01
8.41E+03	1.33E+00	-2.31E-01
8.43E+03	1.33E+00	-2.31E-01
8.45E+03	1.33E+00	-2.31E-01
8.47E+03	1.33E+00	-2.31E-01
8.49E+03	1.33E+00	-2.31E-01
8.51E+03	1.33E+00	-2.31E-01
8.53E+03	1.33E+00	-2.31E-01
8.55E+03	1.33E+00	-2.31E-01
8.57E+03	1.33E+00	-2.31E-01
8.59E+03	1.33E+00	-2.31E-01
8.61E+03	1.33E+00	-2.31E-01
8.63E+03	1.33E+00	-2.31E-01
8.65E+03	1.33E+00	-2.31E-01
8.67E+03	1.33E+00	-2.31E-01
8.69E+03	1.33E+00	-2.31E-01
8.71E+03	1.33E+00	-2.31E-01
8.73E+03	1.33E+00	-2.31E-01
8.75E+03	1.33E+00	-2.31E-01
8.77E+03	1.33E+00	-2.31E-01
8.79E+03	1.33E+00	-2.31E-01
8.81E+03	1.33E+00	-2.31E-01
8.83E+03	1.33E+00	-2.31E-01
8.85E+03	1.33E+00	-2.31E-01
8.87E+03	1.33E+00	-2.31E-01
8.89E+03	1.33E+00	-2.31E-01
8.91E+03	1.33E+00	-2.31E-01
8.93E+03	1.33E+00	-2.31E-01
8.95E+03	1.32E+00	-2.31E-01
8.97E+03	1.32E+00	-2.31E-01
8.99E+03	1.31E+00	-2.31E-01
9.01E+03	1.30E+00	-2.31E-01
9.03E+03	1.29E+00	-2.31E-01
9.05E+03	1.27E+00	-2.31E-01
9.07E+03	1.24E+00	-2.31E-01
9.09E+03	1.22E+00	-2.31E-01
9.11E+03	1.22E+00	-2.31E-01
9.13E+03	1.22E+00	-2.31E-01
9.15E+03	1.25E+00	-2.31E-01
9.17E+03	1.27E+00	-2.31E-01
9.19E+03	1.28E+00	-2.31E-01
9.21E+03	1.25E+00	-2.31E-01
9.23E+03	1.22E+00	-2.31E-01
9.25E+03	1.18E+00	-2.31E-01
9.27E+03	1.10E+00	-2.31E-01
9.29E+03	1.05E+00	-2.32E-01
9.31E+03	1.07E+00	-2.31E-01
9.33E+03	9.92E-01	-2.31E-01
9.35E+03	1.04E+00	-2.31E-01
9.37E+03	1.01E+00	-2.31E-01
9.39E+03	1.31E+00	-2.31E-01
9.41E+03	1.30E+00	-2.31E-01
9.43E+03	1.28E+00	-2.31E-01
9.45E+03	1.35E+00	-2.31E-01
9.47E+03	1.35E+00	-2.31E-01
9.49E+03	1.35E+00	-2.31E-01
9.51E+03	1.35E+00	-2.31E-01
9.53E+03	1.35E+00	-2.31E-01
9.55E+03	1.35E+00	-2.31E-01
9.57E+03	1.35E+00	-2.31E-01
9.59E+03	1.35E+00	-2.31E-01
9.61E+03	1.35E+00	-2.31E-01
9.63E+03	1.34E+00	-2.31E-01
9.65E+03	1.34E+00	-2.31E-01
9.67E+03	1.34E+00	-2.31E-01
9.69E+03	1.33E+00	-2.31E-01
9.71E+03	1.32E+00	-2.31E-01
9.73E+03	1.30E+00	-2.31E-01
9.75E+03	1.15E+00	-2.31E-01
9.77E+03	1.19E+00	-2.31E-01
9.79E+03	1.22E+00	-2.31E-01
9.81E+03	1.24E+00	-2.31E-01
9.83E+03	1.25E+00	-2.31E-01
9.85E+03	1.21E+00	-2.31E-01
9.87E+03	1.23E+00	-2.31E-01
9.89E+03	1.25E+00	-2.31E-01
9.91E+03	1.26E+00	-2.31E-01
9.93E+03	1.27E+00	-2.31E-01
9.95E+03	1.28E+00	-2.31E-01
9.97E+03	1.28E+00	-2.31E-01
9.99E+03	1.28E+00	-2.31E-01
1.00E+04	1.28E+00	-2.31E-01
1.00E+04	1.27E+00	-2.31E-01
1.00E+04	1.28E+00	-2.31E-01
1.01E+04	1.30E+00	-2.31E-01
1.01E+04	1.30E+00	-2.31E-01
1.01E+04	1.29E+00	-2.31E-01
1.01E+04	1.26E+00	-2.31E-01
1.01E+04	1.22E+00	-2.31E-01
1.02E+04	1.20E+00	-2.31E-01
1.02E+04	1.18E+00	-2.31E-01
1.02E+04	1.14E+00	-2.31E-01
1.02E+04	1.05E+00	-2.31E-01
1.02E+04	9.15E-01	-2.31E-01
1.03E+04	9.37E-01	-2.31E-01
1.03E+04	9.37E-01	-2.31E-01
1.03E+04	9.40E-01	-2.31E-01
1.03E+04	9.10E-01	-2.31E-01
1.03E+04	8.90E-01	-2.31E-01
1.04E+04	9.39E-01	-2.31E-01
1.04E+04	1.33E+00	-2.31E-01
1.04E+04	1.32E+00	-2.31E-01
1.04E+04	1.14E+00	-2.31E-01
1.04E+04	1.20E+00	-2.31E-01
1.05E+04	1.26E+00	-2.31E-01
1.05E+04	1.28E+00	-2.31E-01
1.05E+04	1.30E+00	-2.31E-01
1.05E+04	1.31E+00	-2.31E-01
1.05E+04	1.31E+00	-2.31E-01
1.06E+04	1.32E+00	-2.31E-01
1.06E+04	1.32E+00	-2.31E-01
1.06E+04	1.33E+00	-2.31E-01
1.06E+04	1.33E+00	-2.31E-01
1.06E+04	1.32E+00	-2.31E-01
1.07E+04	1.27E+00	-2.31E-01
1.07E+04	9.73E-01	-2.31E-01
1.07E+04	1.27E+00	-2.31E-01
1.07E+04	1.30E+00	-2.31E-01
1.07E+04	1.31E+00	-2.31E-01
1.08E+04	1.31E+00	-2.31E-01
1.08E+04	1.31E+00	-2.31E-01
1.08E+04	1.30E+00	-2.31E-01
1.08E+04	1.28E+00	-2.31E-01
1.08E+04	1.20E+00	-2.31E-01
1.09E+04	1.16E+00	-2.31E-01
1.09E+04	1.13E+00	-2.31E-01
1.09E+04	1.14E+00	-2.31E-01
1.09E+04	1.15E+00	-2.31E-01
1.09E+04	1.23E+00	-2.31E-01
1.10E+04	1.21E+00	-2.31E-01
1.10E+04	1.20E+00	-2.31E-01
1.10E+04	1.19E+00	-2.31E-01
1.10E+04	1.18E+00	-2.31E-01
1.10E+04	1.16E+00	-2.31E-01
1.11E+04	1.13E+00	-2.31E-01
1.11E+04	1.10E+00	-2.31E-01
1.11E+04	1.04E+00	-2.31E-01
1.11E+04	9.30E-01	-2.31E-01
1.11E+04	9.12E-01	-2.31E-01
1.12E+04	8.42E-01	-2.31E-01
1.12E+04	1.01E+00	-2.31E-01
1.12E+04	9.92E-01	-2.31E-01
1.12E+04	8.50E-01	-2.31E-01
1.12E+04	9.42E-01	-2.31E-01
1.13E+04	9.31E-01	-2.31E-01
1.13E+04	1.25E+00	-2.31E-01
1.13E+04	1.30E+00	-2.31E-01
1.13E+04	1.29E+00	-2.31E-01
1.13E+04	1.28E+00	-2.31E-01
1.14E+04	1.26E+00	-2.31E-01
1.14E+04	1.20E+00	-2.31E-01
1.14E+04	1.05E+00	-2.31E-01
1.14E+04	1.05E+00	-2.31E-01
1.14E+04	1.09E+00	-2.31E-01
1.15E+04	1.04E+00	-2.31E-01
1.15E+04	9.43E-01	-2.31E-01
1.15E+04	9.60E-01	-2.31E-01
1.15E+04	1.07E+00	-2.31E-01
1.15E+04	1.31E+00	-2.31E-01
1.16E+04	1.31E+00	-2.31E-01
1.16E+04	1.31E+00	-2.31E-01
1.16E+04	1.30E+00	-2.31E-01
1.16E+04	1.30E+00	-2.31E-01
1.16E+04	1.30E+00	-2.31E-01
1.17E+04	1.30E+00	-2.31E-01
1.17E+04	1.30E+00	-2.31E-01
1.17E+04	1.30E+00	-2.31E-01
1.17E+04	1.30E+00	-2.31E-01
1.17E+04	1.30E+00	-2.31E-01
1.18E+04	1.29E+00	-2.31E-01
1.18E+04	1.29E+00	-2.31E-01
1.18E+04	1.29E+00	-2.31E-01
1.18E+04	1.28E+00	-2.31E-01
1.18E+04	1.28E+00	-2.31E-01
1.19E+04	1.27E+00	-2.31E-01
1.19E+04	1.27E+00	-2.31E-01
1.19E+04	1.26E+00	-2.31E-01
1.19E+04	1.26E+00	-2.31E-01
1.19E+04	1.26E+00	-2.31E-01
1.20E+04	1.24E+00	-2.31E-01
1.20E+04	1.23E+00	-2.31E-01
1.20E+04	1.22E+00	-2.31E-01
1.20E+04	1.21E+00	-2.31E-01
1.20E+04	1.21E+00	-2.31E-01
1.21E+04	1.20E+00	-2.31E-01
1.21E+04	1.19E+00	-2.31E-01
1.21E+04	1.18E+00	-2.31E-01
1.21E+04	1.16E+00	-2.31E-01
1.21E+04	1.15E+00	-2.31E-01
1.22E+04	1.13E+00	-2.31E-01
1.22E+04	1.13E+00	-2.31E-01
1.22E+04	1.13E+00	-2.31E-01
1.22E+04	1.12E+00	-2.31E-01
1.22E+04	1.11E+00	-2.31E-01
1.23E+04	1.07E+00	-2.31E-01
1.23E+04	9.03E-01	-2.31E-01
1.23E+04	7.86E-01	-2.31E-01
1.23E+04	1.23E+00	-2.31E-01
1.23E+04	1.23E+00	-2.31E-01
1.24E+04	1.08E+00	-2.31E-01
1.24E+04	1.19E+00	-2.31E-01
1.24E+04	1.18E+00	-2.31E-01
1.24E+04	1.10E+00	-2.31E-01
1.24E+04	1.20E+00	-2.31E-01
1.25E+04	1.22E+00	-2.31E-01
1.25E+04	1.25E+00	-2.31E-01
1.25E+04	1.30E+00	-2.31E-01
1.25E+04	1.30E+00	-2.31E-01
1.25E+04	1.30E+00	-2.31E-01
1.26E+04	1.30E+00	-2.31E-01
1.26E+04	1.30E+00	-2.31E-01
1.26E+04	1.30E+00	-2.31E-01
1.26E+04	1.30E+00	-2.31E-01
1.26E+04	1.30E+00	-2.31E-01
1.27E+04	1.30E+00	-2.31E-01
1.27E+04	1.30E+00	-2.31E-01
1.27E+04	1.30E+00	-2.31E-01
1.27E+04	1.29E+00	-2.31E-01
1.27E+04	1.27E+00	-2.31E-01
1.28E+04	1.13E+00	-2.31E-01
1.28E+04	1.13E+00	-2.31E-01
1.28E+04	1.18E+00	-2.31E-01
1.28E+04	1.24E+00	-2.31E-01
1.28E+04	1.26E+00	-2.31E-01
1.29E+04	1.27E+00	-2.31E-01
1.29E+04	1.27E+00	-2.31E-01
1.29E+04	1.25E+00	-2.31E-01
1.29E+04	1.26E+00	-2.31E-01
1.29E+04	1.26E+00	-2.31E-01
1.30E+04	1.26E+00	-2.31E-01
1.30E+04	1.26E+00	-2.31E-01
1.30E+04	1.26E+00	-2.31E-01
1.30E+04	1.25E+00	-2.31E-01
1.30E+04	1.25E+00	-2.31E-01
1.31E+04	1.24E+00	-2.31E-01
1.31E+04	1.25E+00	-2.31E-01
1.31E+04	1.25E+00	-2.31E-01
1.31E+04	1.22E+00	-2.31E-01
1.31E+04	1.18E+00	-2.31E-01
1.32E+04	1.22E+00	-2.31E-01
1.32E+04	1.25E+00	-2.31E-01
1.32E+04	1.25E+00	-2.31E-01
1.32E+04	1.26E+00	-2.31E-01
1.32E+04	1.26E+00	-2.31E-01
1.33E+04	1.25E+00	-2.31E-01
1.33E+04	1.24E+00	-2.31E-01
1.33E+04	1.23E+00	-2.31E-01
1.33E+04	1.24E+00	-2.31E-01
1.33E+04	1.25E+00	-2.31E-01
1.34E+04	1.25E+00	-2.31E-01
1.34E+04	1.26E+00	-2.31E-01
1.34E+04	1.26E+00	-2.31E-01
1.34E+04	1.24E+00	-2.31E-01
1.34E+04	1.21E+00	-2.31E-01
1.35E+04	1.21E+00	-2.31E-01
1.35E+04	1.20E+00	-2.31E-01
1.35E+04	1.20E+00	-2.31E-01
1.35E+04	1.23E+00	-2.31E-01
1.35E+04	1.24E+00	-2.31E-01
1.36E+04	1.25E+00	-2.31E-01
1.36E+04	1.25E+00	-2.31E-01
1.36E+04	1.26E+00	-2.31E-01
1.36E+04	1.26E+00	-2.31E-01
1.36E+04	1.26E+00	-2.31E-01
1.37E+04	1.26E+00	-2.31E-01
1.37E+04	1.26E+00	-2.31E-01
1.37E+04	1.26E+00	-2.31E-01
1.37E+04	1.27E+00	-2.31E-01
1.37E+04	1.27E+00	-2.31E-01
1.38E+04	1.27E+00	-2.31E-01
1.38E+04	1.26E+00	-2.31E-01
1.38E+04	1.24E+00	-2.31E-01
1.38E+04	1.24E+00	-2.31E-01
1.38E+04	1.25E+00	-2.31E-01
1.39E+04	1.24E+00	-2.31E-01
1.39E+04	1.21E+00	-2.31E-01
1.39E+04	1.19E+00	-2.31E-01
1.39E+04	1.18E+00	-2.31E-01
1.39E+04	1.23E+00	-2.31E-01
1.40E+04	1.25E+00	-2.31E-01
1.40E+04	1.25E+00	-2.31E-01
1.40E+04	1.25E+00	-2.31E-01
1.40E+04	1.23E+00	-2.31E-01
1.40E+04	1.22E+00	-2.31E-01
1.41E+04	1.21E+00	-2.31E-01
1.41E+04	1.23E+00	-2.31E-01
1.41E+04	1.24E+00	-2.31E-01
1.41E+04	1.26E+00	-2.31E-01
1.41E+04	1.27E+00	-2.31E-01
1.42E+04	1.27E+00	-2.31E-01
1.42E+04	1.27E+00	-2.31E-01
1.42E+04	1.27E+00	-2.31E-01
1.42E+04	1.27E+00	-2.31E-01
1.42E+04	1.27E+00	-2.31E-01
1.43E+04	1.27E+00	-2.31E-01
1.43E+04	1.27E+00	-2.31E-01
1.43E+04	1.27E+00	-2.31E-01
1.43E+04	1.27E+00	-2.31E-01
1.43E+04	1.27E+00	-2.31E-01
1.44E+04	1.27E+00	-2.31E-01
1.44E+04	1.27E+00	-2.31E-01
1.44E+04	1.27E+00	-2.31E-01
1.44E+04	1.27E+00	-2.31E-01
1.44E+04	1.27E+00	-2.31E-01
1.45E+04	1.27E+00	-2.31E-01
1.45E+04	1.26E+00	-2.31E-01
1.45E+04	1.27E+00	-2.31E-01
1.45E+04	1.26E+00	-2.31E-01
1.45E+04	1.26E+00	-2.31E-01
1.46E+04	1.24E+00	-2.31E-01
1.46E+04	1.24E+00	-2.31E-01
1.46E+04	1.24E+00	-2.31E-01
1.46E+04	1.24E+00	-2.31E-01
1.46E+04	1.24E+00	-2.31E-01
1.47E+04	1.23E+00	-2.31E-01
1.47E+04	1.22E+00	-2.31E-01
1.47E+04	1.22E+00	-2.31E-01
1.47E+04	1.20E+00	-2.31E-01
1.47E+04	1.22E+00	-2.31E-01
1.48E+04	1.22E+00	-2.31E-01
1.48E+04	1.22E+00	-2.31E-01
1.48E+04	1.24E+00	-2.31E-01
1.48E+04	1.23E+00	-2.31E-01
1.48E+04	1.14E+00	-2.31E-01
1.49E+04	1.18E+00	-2.31E-01
1.49E+04	1.18E+00	-2.31E-01
1.49E+04	1.18E+00	-2.31E-01
1.49E+04	1.19E+00	-2.31E-01
1.49E+04	1.21E+00	-2.31E-01
1.50E+04	1.23E+00	-2.31E-01
1.50E+04	1.24E+00	-2.31E-01
1.50E+04	1.24E+00	-2.31E-01
1.50E+04	1.24E+00	-2.31E-01
1.50E+04	1.24E+00	-2.31E-01
1.51E+04	1.24E+00	-2.31E-01
1.51E+04	1.25E+00	-2.31E-01
1.51E+04	1.25E+00	-2.31E-01
1.51E+04	1.24E+00	-2.31E-01
1.51E+04	1.24E+00	-2.31E-01
1.52E+04	1.25E+00	-2.31E-01
1.52E+04	1.25E+00	-2.31E-01
1.52E+04	1.25E+00	-2.31E-01
1.52E+04	1.25E+00	-2.31E-01
1.52E+04	1.24E+00	-2.31E-01
1.53E+04	1.24E+00	-2.31E-01
1.53E+04	1.24E+00	-2.31E-01
1.53E+04	1.24E+00	-2.31E-01
1.53E+04	1.24E+00	-2.31E-01
1.53E+04	1.24E+00	-2.31E-01
1.54E+04	1.24E+00	-2.31E-01
1.54E+04	1.24E+00	-2.31E-01
1.54E+04	1.24E+00	-2.31E-01
1.54E+04	1.24E+00	-2.31E-01
1.54E+04	1.24E+00	-2.31E-01
1.55E+04	1.24E+00	-2.31E-01
1.55E+04	1.24E+00	-2.31E-01
1.55E+04	1.24E+00	-2.31E-01
1.55E+04	1.24E+00	-2.31E-01
1.55E+04	1.24E+00	-2.31E-01
1.56E+04	1.24E+00	-2.31E-01
1.56E+04	1.24E+00	-2.31E-01
1.56E+04	1.24E+00	-2.31E-01
1.56E+04	1.24E+00	-2.31E-01
1.56E+04	1.24E+00	-2.31E-01
1.57E+04	1.23E+00	-2.31E-01
1.57E+04	1.23E+00	-2.31E-01
1.57E+04	1.23E+00	-2.31E-01
1.57E+04	1.23E+00	-2.31E-01
1.57E+04	1.23E+00	-2.31E-01
1.58E+04	1.23E+00	-2.31E-01
1.58E+04	1.23E+00	-2.31E-01
1.58E+04	1.23E+00	-2.31E-01
1.58E+04	1.23E+00	-2.31E-01
1.58E+04	1.23E+00	-2.31E-01
1.59E+04	1.23E+00	-2.31E-01
1.59E+04	1.23E+00	-2.31E-01
1.59E+04	1.23E+00	-2.31E-01
1.59E+04	1.23E+00	-2.31E-01
1.59E+04	1.23E+00	-2.31E-01
1.60E+04	1.23E+00	-2.31E-01
1.60E+04	1.23E+00	-2.31E-01
1.60E+04	1.23E+00	-2.31E-01
1.60E+04	1.23E+00	-2.31E-01
1.60E+04	1.23E+00	-2.31E-01
1.61E+04	1.22E+00	-2.31E-01
1.61E+04	1.22E+00	-2.31E-01
1.61E+04	1.22E+00	-2.31E-01
1.61E+04	1.22E+00	-2.31E-01
1.61E+04	1.22E+00	-2.31E-01
1.62E+04	1.22E+00	-2.31E-01
1.62E+04	1.22E+00	-2.31E-01
1.62E+04	1.22E+00	-2.31E-01
1.62E+04	1.22E+00	-2.31E-01
1.62E+04	1.21E+00	-2.31E-01
1.63E+04	1.21E+00	-2.31E-01
1.63E+04	1.21E+00	-2.31E-01
1.63E+04	1.21E+00	-2.31E-01
1.63E+04	1.21E+00	-2.31E-01
1.63E+04	1.21E+00	-2.31E-01
1.64E+04	1.21E+00	-2.31E-01
1.64E+04	1.21E+00	-2.31E-01
1.64E+04	1.21E+00	-2.31E-01
1.64E+04	1.21E+00	-2.31E-01
1.64E+04	1.21E+00	-2.31E-01
1.65E+04	1.21E+00	-2.31E-01
1.65E+04	1.21E+00	-2.31E-01
1.65E+04	1.21E+00	-2.31E-01
1.65E+04	1.21E+00	-2.31E-01
1.65E+04	1.21E+00	-2.31E-01
1.66E+04	1.21E+00	-2.31E-01
1.66E+04	1.21E+00	-2.31E-01
1.66E+04	1.21E+00	-2.31E-01
1.66E+04	1.20E+00	-2.31E-01
1.66E+04	1.19E+00	-2.31E-01
1.67E+04	1.17E+00	-2.31E-01
1.67E+04	1.09E+00	-2.31E-01
1.67E+04	1.01E+00	-2.31E-01
1.67E+04	1.04E+00	-2.31E-01
1.67E+04	1.10E+00	-2.31E-01
1.68E+04	1.10E+00	-2.31E-01
1.68E+04	1.09E+00	-2.31E-01
1.68E+04	1.05E+00	-2.31E-01
1.68E+04	1.09E+00	-2.31E-01
1.68E+04	1.10E+00	-2.31E-01
1.69E+04	1.11E+00	-2.31E-01
1.69E+04	1.12E+00	-2.31E-01
1.69E+04	1.14E+00	-2.31E-01
1.69E+04	1.14E+00	-2.31E-01
1.69E+04	1.14E+00	-2.31E-01
1.70E+04	1.14E+00	-2.31E-01
1.70E+04	1.14E+00	-2.31E-01
1.70E+04	1.14E+00	-2.31E-01
1.70E+04	1.14E+00	-2.31E-01
1.70E+04	1.14E+00	-2.31E-01
1.71E+04	1.14E+00	-2.31E-01
1.71E+04	1.13E+00	-2.31E-01
1.71E+04	1.13E+00	-2.31E-01
1.71E+04	1.13E+00	-2.31E-01
1.71E+04	1.13E+00	-2.31E-01
1.72E+04	1.13E+00	-2.31E-01
1.72E+04	1.13E+00	-2.31E-01
1.72E+04	1.13E+00	-2.31E-01
1.72E+04	1.13E+00	-2.31E-01
1.72E+04	1.13E+00	-2.31E-01
1.73E+04	1.13E+00	-2.31E-01
1.73E+04	1.13E+00	-2.31E-01
1.73E+04	1.13E+00	-2.31E-01
1.73E+04	1.12E+00	-2.31E-01
1.73E+04	1.12E+00	-2.31E-01
1.74E+04	1.12E+00	-2.31E-01
1.74E+04	1.12E+00	-2.31E-01
1.74E+04	1.12E+00	-2.31E-01
1.74E+04	1.12E+00	-2.31E-01
1.74E+04	1.12E+00	-2.31E-01
1.75E+04	1.12E+00	-2.31E-01
1.75E+04	1.12E+00	-2.31E-01
1.75E+04	1.12E+00	-2.31E-01
1.75E+04	1.12E+00	-2.31E-01
1.75E+04	1.12E+00	-2.31E-01
1.76E+04	1.12E+00	-2.31E-01
1.76E+04	1.12E+00	-2.31E-01
1.76E+04	1.12E+00	-2.31E-01
1.76E+04	1.12E+00	-2.31E-01
1.76E+04	1.12E+00	-2.31E-01
1.77E+04	1.11E+00	-2.31E-01
1.77E+04	1.11E+00	-2.31E-01
1.77E+04	1.11E+00	-2.31E-01
1.77E+04	1.11E+00	-2.31E-01
1.77E+04	1.11E+00	-2.31E-01
1.78E+04	1.11E+00	-2.31E-01
1.78E+04	1.11E+00	-2.31E-01
1.78E+04	1.11E+00	-2.31E-01
1.78E+04	1.11E+00	-2.31E-01
1.78E+04	1.11E+00	-2.31E-01
1.79E+04	1.11E+00	-2.31E-01
1.79E+04	1.11E+00	-2.31E-01
1.79E+04	1.11E+00	-2.31E-01
1.79E+04	1.11E+00	-2.31E-01
1.79E+04	1.11E+00	-2.31E-01
1.80E+04	1.11E+00	-2.31E-01
1.80E+04	1.11E+00	-2.31E-01
1.80E+04	1.11E+00	-2.31E-01
1.80E+04	1.11E+00	-2.31E-01
1.80E+04	1.10E+00	-2.31E-01
1.81E+04	1.10E+00	-2.31E-01
1.81E+04	1.10E+00	-2.31E-01
1.81E+04	1.10E+00	-2.31E-01
1.81E+04	1.10E+00	-2.31E-01
1.81E+04	1.10E+00	-2.31E-01
1.82E+04	1.10E+00	-2.31E-01
1.82E+04	1.10E+00	-2.31E-01
1.82E+04	1.10E+00	-2.31E-01
1.82E+04	1.10E+00	-2.31E-01
1.82E+04	1.10E+00	-2.31E-01
1.83E+04	1.10E+00	-2.31E-01
1.83E+04	1.10E+00	-2.31E-01
1.83E+04	1.10E+00	-2.31E-01
1.83E+04	1.09E+00	-2.31E-01
1.83E+04	1.09E+00	-2.31E-01
1.84E+04	1.09E+00	-2.31E-01
1.84E+04	1.09E+00	-2.31E-01
1.84E+04	1.09E+00	-2.31E-01
1.84E+04	1.09E+00	-2.31E-01
1.84E+04	1.09E+00	-2.31E-01
1.85E+04	1.09E+00	-2.31E-01
1.85E+04	1.09E+00	-2.31E-01
1.85E+04	1.09E+00	-2.31E-01
1.85E+04	1.09E+00	-2.31E-01
1.85E+04	1.09E+00	-2.31E-01
1.86E+04	1.09E+00	-2.31E-01
1.86E+04	1.09E+00	-2.31E-01
1.86E+04	1.09E+00	-2.31E-01
1.86E+04	1.09E+00	-2.31E-01
1.86E+04	1.08E+00	-2.31E-01
1.87E+04	1.08E+00	-2.31E-01
1.87E+04	1.11E+00	-2.31E-01
1.87E+04	1.13E+00	-2.31E-01
1.87E+04	1.13E+00	-2.31E-01
1.87E+04	1.14E+00	-2.31E-01
1.88E+04	1.14E+00	-2.31E-01
1.88E+04	1.14E+00	-2.31E-01
1.88E+04	1.14E+00	-2.31E-01
1.88E+04	1.15E+00	-2.31E-01
1.88E+04	1.15E+00	-2.31E-01
1.89E+04	1.15E+00	-2.31E-01
1.89E+04	1.15E+00	-2.31E-01
1.89E+04	1.15E+00	-2.31E-01
1.89E+04	1.15E+00	-2.31E-01
1.89E+04	1.15E+00	-2.31E-01
1.90E+04	1.15E+00	-2.31E-01
1.90E+04	1.14E+00	-2.31E-01
1.90E+04	1.15E+00	-2.31E-01
1.90E+04	1.14E+00	-2.31E-01
1.90E+04	1.14E+00	-2.31E-01
1.91E+04	1.14E+00	-2.31E-01
1.91E+04	1.14E+00	-2.31E-01
1.91E+04	1.14E+00	-2.31E-01
1.91E+04	1.14E+00	-2.31E-01
1.91E+04	1.14E+00	-2.31E-01
1.92E+04	1.14E+00	-2.31E-01
1.92E+04	1.14E+00	-2.31E-01
1.92E+04	1.14E+00	-2.31E-01
1.92E+04	1.14E+00	-2.31E-01
1.92E+04	1.14E+00	-2.31E-01
1.93E+04	1.14E+00	-2.31E-01
1.93E+04	1.14E+00	-2.31E-01
1.93E+04	1.14E+00	-2.31E-01
1.93E+04	1.13E+00	-2.31E-01
1.93E+04	1.13E+00	-2.31E-01
1.94E+04	1.13E+00	-2.31E-01
1.94E+04	1.13E+00	-2.31E-01
1.94E+04	1.13E+00	-2.31E-01
1.94E+04	1.13E+00	-2.31E-01
1.94E+04	1.13E+00	-2.31E-01
1.95E+04	1.13E+00	-2.31E-01
1.95E+04	1.13E+00	-2.31E-01
1.95E+04	1.13E+00	-2.31E-01
1.95E+04	1.13E+00	-2.31E-01
1.95E+04	1.13E+00	-2.31E-01
1.96E+04	1.13E+00	-2.31E-01
1.96E+04	1.13E+00	-2.31E-01
1.96E+04	1.13E+00	-2.31E-01
1.96E+04	1.12E+00	-2.31E-01
1.96E+04	1.12E+00	-2.31E-01
1.97E+04	1.11E+00	-2.31E-01
1.97E+04	1.09E+00	-2.31E-01
1.97E+04	1.03E+00	-2.31E-01
1.97E+04	9.49E-01	-2.31E-01
1.97E+04	9.90E-01	-2.31E-01
1.98E+04	9.74E-01	-2.31E-01
1.98E+04	1.01E+00	-2.31E-01
1.98E+04	1.04E+00	-2.31E-01
1.98E+04	1.05E+00	-2.31E-01
1.98E+04	1.05E+00	-2.31E-01
1.99E+04	1.05E+00	-2.31E-01
1.99E+04	1.05E+00	-2.31E-01
1.99E+04	1.05E+00	-2.31E-01
1.99E+04	1.05E+00	-2.31E-01
1.99E+04	1.04E+00	-2.31E-01
2.00E+04	1.05E+00	-2.31E-01
2.00E+04	1.05E+00	-2.31E-01
2.00E+04	1.04E+00	-2.31E-01
2.00E+04	1.04E+00	-2.31E-01
2.00E+04	1.05E+00	-2.31E-01
2.01E+04	1.04E+00	-2.31E-01
2.01E+04	1.03E+00	-2.31E-01
2.01E+04	1.00E+00	-2.31E-01
2.01E+04	9.99E-01	-2.31E-01
2.01E+04	9.79E-01	-2.31E-01
2.02E+04	1.01E+00	-2.31E-01
2.02E+04	1.01E+00	-2.31E-01
2.02E+04	9.91E-01	-2.31E-01
2.02E+04	9.90E-01	-2.31E-01
2.02E+04	9.58E-01	-2.31E-01
2.03E+04	9.46E-01	-2.31E-01
2.03E+04	9.43E-01	-2.31E-01
2.03E+04	9.44E-01	-2.31E-01
2.03E+04	8.32E-01	-2.31E-01
2.03E+04	8.39E-01	-2.31E-01
2.04E+04	7.66E-01	-2.31E-01
2.04E+04	6.77E-01	-2.31E-01
2.04E+04	6.55E-01	-2.31E-01
2.04E+04	6.24E-01	-2.31E-01
2.04E+04	5.97E-01	-2.31E-01
2.05E+04	5.70E-01	-2.31E-01
2.05E+04	5.17E-01	-2.31E-01
2.05E+04	5.00E-01	-2.31E-01
2.05E+04	5.00E-01	-2.31E-01
2.05E+04	4.99E-01	-2.31E-01
2.06E+04	4.99E-01	-1.38E-01
2.06E+04	4.99E-01	-1.54E+00
2.07E+04	4.99E-01	-1.29E+00
2.07E+04	4.99E-01	-1.07E+00
2.08E+04	4.99E-01	-8.28E-01
2.09E+04	4.99E-01	-4.84E-01
2.09E+04	4.99E-01	-3.05E-01
2.10E+04	4.99E-01	-9.05E-03
2.10E+04	4.99E-01	-8.88E-03
2.10E+04	1.18E+00	0.00E+00
2.10E+04	1.05E+01	6.70E+01
2.10E+04	1.05E+01	6.75E+01
2.10E+04	1.24E+00	0.00E+00
2.10E+04	3.00E+00	2.50E+00